VN SP-energy RMS-radius
1.24 	-0.255 	4.230
1.25 	-0.400 	4.118
1.26 	-0.548 	4.032
1.27 	-0.697 	3.961
1.28 	-0.850 	3.900
1.29 	-1.004 	3.847
1.30 	-1.160 	3.799
1.31 	-1.318 	3.756
1.32 	-1.478 	3.717
1.33 	-1.640 	3.681
1.34 	-1.803 	3.647
1.35 	-1.969 	3.616
1.36 	-2.136 	3.586
1.37 	-2.304 	3.559
1.38 	-2.475 	3.532
1.39 	-2.646 	3.507
1.40 	-2.819 	3.484
1.41 	-2.994 	3.461
1.42 	-3.170 	3.440